data_13pf_MT

loop_
_rlnMicrographMovieName #1
_rlnTomoNominalStageTiltAngle #2

frames/13pf_MT_000.mrc	0.1
frames/13pf_MT_001.mrc	-30.1
frames/13pf_MT_002.mrc	30.3
frames/13pf_MT_003.mrc	59.9
frames/13pf_MT_004.mrc	-60.1
