data_13pf_MT

loop_
_rlnMicrographMovieName #1
_rlnTomoNominalStageTiltAngle #2

frames/14pf_MT_000.mrc	0.0
frames/14pf_MT_001.mrc	-20.0
frames/14pf_MT_002.mrc	20.0
frames/14pf_MT_003.mrc	40.0
frames/14pf_MT_004.mrc	-40.0
frames/14pf_MT_005.mrc	-60.0
frames/14pf_MT_006.mrc	60.0
